x,y,theta,v
1.00048,1.50558,1.48496,0.112035
1.00086,1.51537,1.53178,0.196019
1.00188,1.52828,1.49203,0.258916
1.00281,1.54355,1.51007,0.305961
1.00417,1.56055,1.49098,0.341099
1.00552,1.57886,1.49705,0.367282
1.00714,1.59813,1.48714,0.386737
1.00879,1.61812,1.4883,0.401135
1.0106,1.63863,1.48263,0.411733
1.01247,1.65952,1.48191,0.419476
1.01443,1.68068,1.47831,0.425074
1.01644,1.70204,1.47697,0.429059
1.01852,1.72353,1.47446,0.431834
1.02063,1.74511,1.47303,0.433699
1.0228,1.76675,1.47116,0.434881
1.02499,1.78842,1.46982,0.435551
1.02722,1.8101,1.46836,0.435835
1.02947,1.83177,1.46719,0.43583
1.03175,1.85343,1.46602,0.435608
1.03405,1.87507,1.46502,0.435224
1.03636,1.89668,1.46407,0.434719
1.03869,1.91826,1.46322,0.434122
1.04104,1.93981,1.46244,0.433458
1.04339,1.96132,1.46173,0.432743
1.04576,1.98279,1.46108,0.43199
1.04813,2.00422,1.46049,0.43121
1.05051,2.02561,1.45995,0.430409
1.0529,2.04695,1.45946,0.429593
1.05529,2.06826,1.45902,0.428766
1.05768,2.08952,1.45861,0.427932
1.06008,2.11074,1.45824,0.427092
1.06248,2.13191,1.4579,0.426249
1.06489,2.15305,1.45759,0.425403
1.06729,2.17414,1.45731,0.424556
1.0697,2.19519,1.45705,0.423708
1.0721,2.21619,1.45682,0.422861
1.0745,2.23716,1.4566,0.422014
1.07691,2.25808,1.45641,0.421168
1.07931,2.27896,1.45623,0.420322
1.08171,2.29979,1.45607,0.419478
1.08411,2.32059,1.45592,0.418635
1.08651,2.34134,1.45579,0.417794
1.0889,2.36205,1.45566,0.416954
1.0913,2.38272,1.45555,0.416115
1.09369,2.40334,1.45545,0.415279
1.09607,2.42393,1.45536,0.414443
1.09846,2.44447,1.45527,0.41361
1.10084,2.46497,1.4552,0.412777
1.10321,2.48543,1.45513,0.411947
1.10559,2.50585,1.45506,0.411118
1.10796,2.52622,1.455,0.410291
1.11032,2.54656,1.45495,0.409465
1.11269,2.56686,1.4549,0.408642
1.11505,2.58711,1.45486,0.407819
1.1174,2.60732,1.45482,0.406999
1.11975,2.6275,1.45478,0.40618
1.1221,2.64763,1.45475,0.405363
1.12444,2.66772,1.45472,0.404547
1.12678,2.68777,1.45469,0.403733
1.12911,2.70778,1.45466,0.402921
1.13144,2.72775,1.45464,0.40211
1.13377,2.74768,1.45462,0.401301
1.13609,2.76757,1.4546,0.400493
1.13841,2.78742,1.45458,0.399687
1.14072,2.80723,1.45456,0.398883
1.14303,2.827,1.45455,0.398081
1.14533,2.84673,1.45454,0.39728
1.14763,2.86642,1.45452,0.39648
1.14993,2.88607,1.45451,0.395682
1.15222,2.90568,1.4545,0.394886
1.15451,2.92525,1.45449,0.394092
1.15679,2.94478,1.45449,0.393299
1.15907,2.96428,1.45448,0.392507
1.16134,2.98373,1.45447,0.391717
1.16361,3.00314,1.45446,0.390929
1.16587,3.02252,1.45446,0.390143
1.16813,3.04186,1.45445,0.389358
1.17039,3.06115,1.45445,0.388574
1.17264,3.08041,1.45444,0.387792
1.17489,3.09963,1.45444,0.387012
1.17713,3.11881,1.45444,0.386233
1.17936,3.13795,1.45443,0.385456
1.1816,3.15706,1.45443,0.38468
1.18383,3.17612,1.45443,0.383906
1.18605,3.19515,1.45443,0.383134
1.18827,3.21414,1.45442,0.382363
1.19049,3.23309,1.45442,0.381594
1.1927,3.252,1.45442,0.380826
1.1949,3.27088,1.45442,0.380059
1.19711,3.28971,1.45442,0.379295
1.1993,3.30851,1.45441,0.378532
1.2015,3.32727,1.45441,0.37777
1.20369,3.346,1.45441,0.37701
1.20587,3.36468,1.45441,0.376251
1.20805,3.38333,1.45441,0.375494
1.21023,3.40194,1.45441,0.374738
1.2124,3.42051,1.45441,0.373984
1.21457,3.43905,1.45441,0.373232
1.21673,3.45755,1.45441,0.372481
1.21889,3.47601,1.45441,0.371731
1.22104,3.49443,1.4544,0.370983
1.22319,3.51282,1.4544,0.370237
1.22534,3.53117,1.4544,0.369492
1.22748,3.54948,1.4544,0.368748
1.22961,3.56775,1.4544,0.368006
1.23175,3.58599,1.4544,0.367266
1.23387,3.6042,1.4544,0.366527
1.236,3.62236,1.4544,0.365789
1.23812,3.64049,1.4544,0.365053
1.24023,3.65858,1.4544,0.364319
1.24234,3.67664,1.4544,0.363586
1.24445,3.69466,1.4544,0.362854
1.24655,3.71264,1.4544,0.362124
1.24865,3.73059,1.4544,0.361395
1.25075,3.7485,1.4544,0.360668
1.25284,3.76638,1.4544,0.359943
1.25492,3.78422,1.4544,0.359218
1.257,3.80202,1.4544,0.358495
1.25908,3.81979,1.4544,0.357774
1.26116,3.83752,1.4544,0.357054
1.26322,3.85522,1.4544,0.356336
1.26529,3.87288,1.4544,0.355619
1.26735,3.8905,1.4544,0.354903
1.26941,3.90809,1.4544,0.354189
1.27146,3.92565,1.4544,0.353476
1.27351,3.94316,1.4544,0.352765
1.27555,3.96065,1.4544,0.352055
1.27759,3.9781,1.4544,0.351347
1.27963,3.99551,1.4544,0.35064
1.28166,4.01289,1.4544,0.349934
1.28369,4.03023,1.4544,0.34923
1.28571,4.04754,1.4544,0.348528
1.28773,4.06481,1.4544,0.347826
1.28975,4.08205,1.4544,0.347126
1.29176,4.09926,1.4544,0.346428
1.29377,4.11643,1.4544,0.345731
1.29577,4.13356,1.4544,0.345035
1.29777,4.15066,1.4544,0.344341
1.29977,4.16773,1.4544,0.343648
1.30176,4.18476,1.4544,0.342956
1.30374,4.20176,1.4544,0.342266
1.30573,4.21872,1.4544,0.341578
1.30771,4.23565,1.4544,0.34089
1.30968,4.25255,1.4544,0.340204
1.31165,4.26941,1.4544,0.33952
1.31362,4.28623,1.4544,0.338837
1.31559,4.30303,1.4544,0.338155
1.31755,4.31979,1.4544,0.337475
1.3195,4.33651,1.4544,0.336795
1.32145,4.3532,1.4544,0.336118
1.3234,4.36986,1.4544,0.335441
1.32534,4.38649,1.4544,0.334766
1.32728,4.40308,1.4544,0.334093
1.32922,4.41964,1.4544,0.333421
1.33115,4.43616,1.4544,0.33275
1.33308,4.45265,1.4544,0.33208
1.33501,4.46911,1.4544,0.331412
1.33693,4.48554,1.4544,0.330745
1.33884,4.50193,1.4544,0.33008
1.34076,4.51829,1.4544,0.329415
1.34266,4.53462,1.4544,0.328753
1.34457,4.55091,1.4544,0.328091
1.34647,4.56717,1.4544,0.327431
1.34837,4.5834,1.4544,0.326772
1.35026,4.59959,1.4544,0.326115
1.35215,4.61576,1.4544,0.325458
1.35404,4.63189,1.4544,0.324803
1.35592,4.64798,1.4544,0.32415
1.3578,4.66405,1.4544,0.323498
1.35967,4.68008,1.4544,0.322847
1.36154,4.69608,1.4544,0.322197
1.36341,4.71205,1.4544,0.321549
1.36527,4.72799,1.4544,0.320902
1.36713,4.74389,1.4544,0.320256
1.36899,4.75977,1.4544,0.319612
1.37084,4.77561,1.4544,0.318969
1.37269,4.79142,1.4544,0.318327
1.37454,4.80719,1.4544,0.317686
1.37638,4.82294,1.4544,0.317047
1.37821,4.83865,1.4544,0.316409
1.38005,4.85433,1.4544,0.315772
1.38188,4.86998,1.4544,0.315137
1.3837,4.8856,1.4544,0.314503
1.38553,4.90119,1.4544,0.31387
1.38735,4.91674,1.4544,0.313238
1.38916,4.93227,1.4544,0.312608
1.39097,4.94776,1.4544,0.311979
1.39278,4.96323,1.4544,0.311351
1.39458,4.97866,1.4544,0.310725
1.39638,4.99406,1.4544,0.3101
1.39818,5.00943,1.4544,0.309476
1.39998,5.02476,1.4544,0.308853
1.40177,5.04007,1.4544,0.308231
1.40355,5.05535,1.4544,0.307611
1.40533,5.07059,1.4544,0.306992
1.40711,5.08581,1.4544,0.306375
1.40889,5.10099,1.4544,0.305758
1.41066,5.11615,1.4544,0.305143
1.41243,5.13127,1.4544,0.304529
1.41419,5.14636,1.4544,0.303916
1.41595,5.16143,1.4544,0.303305
1.41771,5.17646,1.4544,0.302694
1.41947,5.19146,1.4544,0.302085
1.42122,5.20643,1.4544,0.301477
1.42296,5.22137,1.4544,0.300871
1.42471,5.23629,1.4544,0.300265
1.42645,5.25117,1.4544,0.299661
1.42818,5.26602,1.4544,0.299058
1.42992,5.28084,1.4544,0.298456
1.43165,5.29563,1.4544,0.297856
1.43337,5.31039,1.4544,0.297257
1.4351,5.32513,1.4544,0.296658
1.43681,5.33983,1.4544,0.296061
1.43853,5.3545,1.4544,0.295466
1.44024,5.36915,1.4544,0.294871
1.44195,5.38376,1.4544,0.294278
1.44366,5.39835,1.4544,0.293686
1.44536,5.4129,1.4544,0.293095
1.44706,5.42743,1.4544,0.292505
1.44875,5.44193,1.4544,0.291916
1.45044,5.45639,1.4544,0.291329
1.45213,5.47083,1.4544,0.290743
1.45382,5.48524,1.4544,0.290158
1.4555,5.49962,1.4544,0.289574
1.45718,5.51397,1.4544,0.288991
1.45885,5.5283,1.4544,0.28841
1.46052,5.54259,1.4544,0.28783
1.46219,5.55686,1.4544,0.28725
1.46386,5.57109,1.4544,0.286672
1.46552,5.5853,1.4544,0.286096
1.46717,5.59948,1.4544,0.28552
1.46883,5.61363,1.4544,0.284945
1.47048,5.62775,1.4544,0.284372
1.47213,5.64185,1.4544,0.2838
1.47377,5.65591,1.4544,0.283229
1.47541,5.66995,1.4544,0.282659
1.47705,5.68396,1.4544,0.28209
1.47869,5.69794,1.4544,0.281522
1.48032,5.71189,1.4544,0.280956
1.48195,5.72582,1.4544,0.280391
1.48357,5.73971,1.4544,0.279826
1.48519,5.75358,1.4544,0.279263
1.48681,5.76742,1.4544,0.278701
1.48843,5.78124,1.4544,0.278141
1.49004,5.79502,1.4544,0.277581
1.49165,5.80878,1.4544,0.277022
1.49325,5.82251,1.4544,0.276465
1.49485,5.83621,1.4544,0.275909
1.49645,5.84989,1.4544,0.275354
1.49805,5.86353,1.4544,0.2748
1.49964,5.87715,1.4544,0.274247
1.50123,5.89074,1.4544,0.273695
1.50282,5.90431,1.4544,0.273144
1.5044,5.91785,1.4544,0.272594
1.50598,5.93136,1.4544,0.272046
1.50756,5.94484,1.4544,0.271499
1.50913,5.9583,1.4544,0.270952
1.5107,5.97173,1.4544,0.270407
1.51227,5.98513,1.4544,0.269863
1.51383,5.9985,1.4544,0.26932
1.51539,6.01185,1.4544,0.268778
1.51695,6.02517,1.4544,0.268237
1.5185,6.03847,1.4544,0.267697
1.52005,6.05173,1.4544,0.267159
1.5216,6.06497,1.4544,0.266621
1.52315,6.07819,1.4544,0.266085
1.52469,6.09138,1.4544,0.265549
1.52623,6.10454,1.4544,0.265015
1.52776,6.11767,1.4544,0.264482
1.5293,6.13078,1.4544,0.26395
1.53083,6.14386,1.4544,0.263418
1.53235,6.15692,1.4544,0.262888
1.53388,6.16995,1.4544,0.262359
1.5354,6.18295,1.4544,0.261831
1.53691,6.19593,1.4544,0.261305
1.53843,6.20888,1.4544,0.260779
1.53994,6.2218,1.4544,0.260254
1.54145,6.2347,1.4544,0.25973
1.54295,6.24757,1.4544,0.259208
1.54446,6.26042,1.4544,0.258686
1.54595,6.27324,1.4544,0.258166
1.54745,6.28604,1.4544,0.257646
1.54894,6.2988,1.4544,0.257128
1.55043,6.31155,1.4544,0.25661
1.55192,6.32427,1.4544,0.256094
1.55341,6.33696,1.4544,0.255579
1.55489,6.34963,1.4544,0.255065
1.55636,6.36227,1.4544,0.254551
1.55784,6.37488,1.4544,0.254039
1.55931,6.38747,1.4544,0.253528
1.56078,6.40004,1.4544,0.253018
1.56225,6.41258,1.4544,0.252509
1.56371,6.42509,1.4544,0.252001
1.56517,6.43758,1.4544,0.251493
1.56663,6.45005,1.4544,0.250987
1.56808,6.46249,1.4544,0.250482
1.56953,6.4749,1.4544,0.249978
1.57098,6.48729,1.4544,0.249475
1.57243,6.49966,1.4544,0.248973
1.57387,6.512,1.4544,0.248472
1.57531,6.52431,1.4544,0.247972
1.57675,6.5366,1.4544,0.247474
1.57818,6.54887,1.4544,0.246976
1.57961,6.56111,1.4544,0.246479
1.58104,6.57332,1.4544,0.245983
1.58247,6.58551,1.4544,0.245488
1.58389,6.59768,1.4544,0.244994
1.58531,6.60982,1.4544,0.244501
1.58673,6.62194,1.4544,0.244009
1.58814,6.63403,1.4544,0.243518
1.58955,6.6461,1.4544,0.243028
1.59096,6.65815,1.4544,0.242539
1.59237,6.67017,1.4544,0.242051
1.59377,6.68216,1.4544,0.241564
1.59517,6.69411,1.4544,0.240602
1.59655,6.70599,1.4544,0.239159
1.59793,6.71778,1.4544,0.237359
1.5993,6.72946,1.4544,0.235297
1.60065,6.74104,1.4544,0.233045
1.60199,6.75249,1.4544,0.230656
1.60332,6.76382,1.4544,0.228173
1.60463,6.77503,1.4544,0.225626
1.60592,6.7861,1.4544,0.223039
1.6072,6.79705,1.4544,0.220429
1.60847,6.80787,1.4544,0.217811
1.60972,6.81855,1.4544,0.215194
1.61095,6.82911,1.4544,0.212585
1.61217,6.83954,1.4544,0.209991
1.61337,6.84984,1.4544,0.207416
1.61456,6.86001,1.4544,0.204862
1.61574,6.87006,1.4544,0.202332
1.6169,6.87999,1.4544,0.199827
1.61805,6.88979,1.4544,0.197349
1.61918,6.89947,1.4544,0.194899
1.62029,6.90903,1.4544,0.192476
1.6214,6.91847,1.4544,0.190082
1.62249,6.92779,1.4544,0.187716
1.62356,6.93699,1.4544,0.185378
1.62463,6.94609,1.4544,0.183069
1.62568,6.95506,1.4544,0.180788
1.62671,6.96393,1.4544,0.178534
1.62774,6.97269,1.4544,0.176309
1.62875,6.98133,1.4544,0.174111
1.62975,6.98987,1.4544,0.17194
1.63073,6.9983,1.4544,0.169796
1.63171,7.00663,1.4544,0.167678
1.63267,7.01485,1.4544,0.165587
1.63362,7.02297,1.4544,0.163522
1.63456,7.03099,1.4544,0.161483
1.63548,7.03891,1.4544,0.159469
1.6364,7.04673,1.4544,0.15748
1.6373,7.05446,1.4544,0.155516
1.63819,7.06208,1.4544,0.153576
1.63907,7.06962,1.4544,0.151661
1.63994,7.07705,1.4544,0.149769
1.6408,7.0844,1.4544,0.147901
1.64165,7.09165,1.4544,0.146057
1.64249,7.09882,1.4544,0.144235
1.64331,7.10589,1.4544,0.142436
1.64413,7.11287,1.4544,0.140659
1.64494,7.11977,1.4544,0.138905
1.64573,7.12658,1.4544,0.137173
1.64652,7.13331,1.4544,0.135462
1.6473,7.13996,1.4544,0.133772
1.64806,7.14652,1.4544,0.132104
1.64882,7.15299,1.4544,0.130456
1.64957,7.15939,1.4544,0.128829
1.65031,7.16571,1.4544,0.127222
1.65104,7.17195,1.4544,0.125635
1.65176,7.17811,1.4544,0.124068
1.65247,7.1842,1.4544,0.122521
1.65317,7.1902,1.4544,0.120993
1.65387,7.19614,1.4544,0.119484
1.65455,7.202,1.4544,0.117993
1.65523,7.20778,1.4544,0.116522
1.6559,7.2135,1.4544,0.115068
1.65656,7.21914,1.4544,0.113633
1.65721,7.22471,1.4544,0.112216
1.65785,7.23022,1.4544,0.110816
1.65849,7.23565,1.4544,0.109434
1.65911,7.24102,1.4544,0.108069
1.65973,7.24632,1.4544,0.106721
1.66035,7.25155,1.4544,0.10539
1.66095,7.25672,1.4544,0.104076
1.66155,7.26183,1.4544,0.102777
1.66214,7.26687,1.4544,0.101496
1.66272,7.27184,1.4544,0.10023
1.66329,7.27676,1.4544,0.0989795
1.66386,7.28161,1.4544,0.097745
1.66442,7.28641,1.4544,0.0965259
1.66497,7.29114,1.4544,0.0953219
1.66552,7.29582,1.4544,0.094133
1.66606,7.30043,1.4544,0.092959
1.66659,7.30499,1.4544,0.0917995
1.66712,7.30949,1.4544,0.0906545
1.66764,7.31394,1.4544,0.0895238
1.66815,7.31833,1.4544,0.0884072
1.66866,7.32267,1.4544,0.0873046
1.66916,7.32695,1.4544,0.0862157
1.66965,7.33118,1.4544,0.0851403
1.67014,7.33535,1.4544,0.0840784
1.67063,7.33947,1.4544,0.0830297
1.6711,7.34355,1.4544,0.0819941
1.67157,7.34757,1.4544,0.0809715
1.67204,7.35154,1.4544,0.0799615
1.67249,7.35546,1.4544,0.0789642
1.67295,7.35933,1.4544,0.0779793
1.67339,7.36316,1.4544,0.0770067
1.67384,7.36693,1.4544,0.0760462
1.67427,7.37066,1.4544,0.0750977
1.6747,7.37435,1.4544,0.0741611
1.67513,7.37798,1.4544,0.0732361
1.67555,7.38157,1.4544,0.0723227
1.67596,7.38512,1.4544,0.0714206
1.67637,7.38862,1.4544,0.0705298
1.67678,7.39208,1.4544,0.0696501
1.67718,7.3955,1.4544,0.0687814
1.67757,7.39887,1.4544,0.0679235
1.67796,7.4022,1.4544,0.0670763
1.67834,7.40549,1.4544,0.0662397
1.67872,7.40874,1.4544,0.0654135
1.6791,7.41195,1.4544,0.0645977
1.67947,7.41512,1.4544,0.063792
1.67984,7.41825,1.4544,0.0629963
1.6802,7.42134,1.4544,0.0622106
1.68055,7.42439,1.4544,0.0614347
1.68091,7.4274,1.4544,0.0606684
1.68125,7.43037,1.4544,0.0599117
1.6816,7.43331,1.4544,0.0591645
1.68194,7.43621,1.4544,0.0584265
1.68227,7.43908,1.4544,0.0576978
1.6826,7.44191,1.4544,0.0569782
1.68293,7.4447,1.4544,0.0562675
1.68325,7.44746,1.4544,0.0555657
1.68357,7.45019,1.4544,0.0548726
1.68389,7.45288,1.4544,0.0541882
1.6842,7.45554,1.4544,0.0535124
1.6845,7.45816,1.4544,0.0528449
1.68481,7.46075,1.4544,0.0521858
1.68511,7.46331,1.4544,0.0515349
1.6854,7.46584,1.4544,0.0508922
1.68569,7.46834,1.4544,0.0502574
1.68598,7.4708,1.4544,0.0496306
1.68627,7.47323,1.4544,0.0490115
1.68655,7.47564,1.4544,0.0484002
1.68682,7.47801,1.4544,0.0477966
1.6871,7.48036,1.4544,0.0472004
1.68737,7.48267,1.4544,0.0466117
1.68764,7.48496,1.4544,0.0460303
1.6879,7.48721,1.4544,0.0454562
1.68816,7.48944,1.4544,0.0448893
1.68842,7.49164,1.4544,0.0443294
1.68867,7.49382,1.4544,0.0437765
1.68892,7.49597,1.4544,0.0432305
1.68917,7.49809,1.4544,0.0426913
1.68942,7.50018,1.4544,0.0421588
1.68966,7.50225,1.4544,0.041633
1.6899,7.50429,1.4544,0.0411137
1.69013,7.5063,1.4544,0.0406009
1.69036,7.5083,1.4544,0.0400945
1.69059,7.51026,1.4544,0.0395944
1.69082,7.5122,1.4544,0.0391006
1.69105,7.51412,1.4544,0.0386129
1.69127,7.51602,1.4544,0.0381313
1.69149,7.51789,1.4544,0.0376557
1.6917,7.51973,1.4544,0.037186
1.69192,7.52156,1.4544,0.0367222
1.69213,7.52336,1.4544,0.0362642
1.69233,7.52514,1.4544,0.0358119
1.69254,7.52689,1.4544,0.0353652
1.69274,7.52863,1.4544,0.0349241
1.69294,7.53034,1.4544,0.0344885
1.69314,7.53203,1.4544,0.0340584
1.69334,7.5337,1.4544,0.0336336
1.69353,7.53535,1.4544,0.0332141
1.69372,7.53698,1.4544,0.0327998
1.69391,7.53859,1.4544,0.0323907
1.69409,7.54018,1.4544,0.0319867
1.69428,7.54174,1.4544,0.0315878
1.69446,7.54329,1.4544,0.0311938
1.69464,7.54482,1.4544,0.0308047
1.69481,7.54633,1.4544,0.0304205
1.69499,7.54783,1.4544,0.0300411
1.69516,7.5493,1.4544,0.0296664
1.69533,7.55075,1.4544,0.0292964
1.6955,7.55219,1.4544,0.028931
1.69566,7.55361,1.4544,0.0285701
1.69583,7.55501,1.4544,0.0282138
1.69599,7.55639,1.4544,0.0278619
1.69615,7.55776,1.4544,0.0275144
1.69631,7.55911,1.4544,0.0271712
1.69646,7.56044,1.4544,0.0268323
1.69662,7.56176,1.4544,0.0264976
1.69677,7.56306,1.4544,0.0261671
1.69692,7.56434,1.4544,0.0258408
1.69707,7.56561,1.4544,0.0255185
1.69721,7.56686,1.4544,0.0252002
1.69736,7.5681,1.4544,0.0248859
1.70398,7.5649,-0.449393,0.147019
1.71398,7.57143,0.578362,0.2389
1.72893,7.56778,-0.239392,0.30783
1.74681,7.56962,0.102352,0.359412
1.76605,7.56456,-0.257001,0.397923
1.7871,7.56099,-0.167938,0.426905
1.8081,7.55315,-0.357222,0.448457
1.82988,7.54507,-0.355661,0.464513
1.85112,7.5343,-0.469192,0.476383
1.87244,7.52274,-0.496783,0.485093
1.8931,7.50943,-0.572049,0.491426
1.91346,7.49528,-0.607559,0.495964
1.93315,7.47994,-0.66178,0.499149
1.95238,7.46386,-0.696767,0.501313
1.97097,7.44694,-0.738188,0.502705
1.98905,7.42942,-0.769645,0.503516
2.00656,7.4113,-0.802474,0.503886
2.02357,7.39272,-0.829648,0.503924
2.04007,7.37369,-0.856229,0.50371
2.05612,7.35431,-0.879258,0.503306
2.07173,7.3346,-0.901038,0.502758
2.08693,7.31462,-0.920366,0.502102
2.10175,7.2944,-0.938327,0.501363
2.11621,7.27398,-0.954469,0.500562
2.13035,7.25338,-0.969332,0.499714
2.14419,7.23263,-0.982778,0.498832
2.15774,7.21174,-0.9951,0.497922
2.17104,7.19075,-1.00629,0.496993
2.18409,7.16966,-1.01651,0.496049
2.19692,7.14849,-1.02581,0.495095
2.20955,7.12726,-1.0343,0.494132
2.22199,7.10597,-1.04203,0.493164
2.23426,7.08463,-1.04908,0.492192
2.24636,7.06326,-1.0555,0.491218
2.25831,7.04186,-1.06135,0.490242
2.27013,7.02044,-1.06669,0.489265
2.28182,6.999,-1.07155,0.488289
2.29339,6.97756,-1.07599,0.487312
2.30485,6.95611,-1.08003,0.486336
2.31621,6.93467,-1.08371,0.485362
2.32747,6.91323,-1.08706,0.484388
2.33865,6.8918,-1.09012,0.483416
2.34974,6.87038,-1.09291,0.482445
2.36076,6.84897,-1.09545,0.481476
2.37171,6.82758,-1.09777,0.480508
2.38258,6.80622,-1.09988,0.479542
2.3934,6.78487,-1.10181,0.478578
2.40416,6.76355,-1.10356,0.477616
2.41486,6.74226,-1.10516,0.476655
2.4255,6.72099,-1.10662,0.475697
2.4361,6.69975,-1.10794,0.47474
2.44665,6.67854,-1.10915,0.473785
2.45716,6.65736,-1.11026,0.472832
2.46763,6.63621,-1.11126,0.47188
2.47805,6.6151,-1.11218,0.470931
2.48844,6.59402,-1.11302,0.469984
2.49879,6.57298,-1.11378,0.469038
2.5091,6.55197,-1.11447,0.468094
2.51938,6.53099,-1.11511,0.467152
2.52962,6.51005,-1.11568,0.466212
2.53984,6.48915,-1.11621,0.465274
2.55002,6.46829,-1.11669,0.464338
2.56018,6.44746,-1.11712,0.463404
2.5703,6.42667,-1.11752,0.462472
2.5804,6.40592,-1.11789,0.461541
2.59047,6.38521,-1.11822,0.460612
2.60052,6.36454,-1.11852,0.459685
2.61054,6.3439,-1.11879,0.458761
2.62053,6.32331,-1.11904,0.457837
2.6305,6.30275,-1.11927,0.456916
2.64044,6.28223,-1.11948,0.455997
2.65036,6.26176,-1.11967,0.455079
2.66026,6.24132,-1.11984,0.454164
2.67013,6.22092,-1.12,0.45325
2.67998,6.20056,-1.12015,0.452338
2.68981,6.18024,-1.12028,0.451427
2.69962,6.15996,-1.1204,0.450519
2.7094,6.13972,-1.1205,0.449611
2.71917,6.11952,-1.1206,0.448706
2.72891,6.09936,-1.12069,0.447802
2.73863,6.07924,-1.12077,0.4469
2.74832,6.05916,-1.12084,0.446
2.758,6.03912,-1.12091,0.445102
2.76766,6.01912,-1.12097,0.444205
2.7773,5.99916,-1.12102,0.44331
2.78691,5.97924,-1.12107,0.442417
2.79651,5.95936,-1.12111,0.441526
2.80609,5.93952,-1.12114,0.440637
2.81564,5.91971,-1.12118,0.439749
2.82518,5.89995,-1.12121,0.438864
2.8347,5.88023,-1.12123,0.43798
2.84419,5.86054,-1.12126,0.437098
2.85367,5.8409,-1.12128,0.436218
2.86313,5.8213,-1.12129,0.43534
2.87257,5.80173,-1.12131,0.434463
2.88199,5.7822,-1.12132,0.433588
2.89139,5.76272,-1.12134,0.432716
2.90077,5.74327,-1.12135,0.431844
2.91013,5.72386,-1.12136,0.430975
2.91947,5.70449,-1.12137,0.430108
2.9288,5.68516,-1.12137,0.429242
2.9381,5.66587,-1.12138,0.428378
2.94739,5.64661,-1.12139,0.427516
2.95666,5.6274,-1.12139,0.426655
2.9659,5.60822,-1.1214,0.425797
2.97513,5.58909,-1.1214,0.42494
2.98435,5.56999,-1.1214,0.424085
2.99354,5.55093,-1.12141,0.423231
3.00271,5.5319,-1.12141,0.42238
3.01187,5.51292,-1.12141,0.42153
3.02101,5.49398,-1.12141,0.420682
3.03013,5.47507,-1.12142,0.419836
3.03923,5.4562,-1.12142,0.418991
3.04831,5.43737,-1.12142,0.418148
3.05737,5.41857,-1.12142,0.417307
3.06642,5.39982,-1.12142,0.416467
3.07545,5.3811,-1.12142,0.415629
3.08446,5.36242,-1.12142,0.414793
