x,y,theta,v
1.00017,1.50624,1.54417,0.124826
1.0003,1.51716,1.55852,0.218425
1.00066,1.53158,1.54597,0.288523
1.00099,1.54863,1.55146,0.340953
1.00147,1.56762,1.5454,0.380107
1.00195,1.58808,1.54722,0.409283
1.00253,1.60962,1.54409,0.430963
1.00312,1.63197,1.54442,0.447007
1.00376,1.6549,1.54267,0.458818
1.00443,1.67826,1.54245,0.467447
1.00512,1.70194,1.54137,0.473685
1.00583,1.72583,1.54099,0.478127
1.00657,1.74988,1.54026,0.48122
1.00732,1.77403,1.53986,0.483299
1.00808,1.79825,1.53933,0.484617
1.00885,1.82251,1.53896,0.485363
1.00963,1.84678,1.53856,0.48568
1.01044,1.87105,1.5378,0.485687
1.01124,1.89531,1.53774,0.485438
1.01205,1.91955,1.53734,0.485008
1.01286,1.94376,1.53718,0.484443
1.01368,1.96793,1.53692,0.483777
1.0145,1.99207,1.53675,0.483036
1.01533,2.01617,1.53656,0.482238
1.01616,2.04022,1.53641,0.481399
1.01699,2.06423,1.53626,0.480529
1.01782,2.0882,1.53613,0.479636
1.01865,2.11212,1.53601,0.478727
1.01948,2.136,1.53591,0.477805
1.02032,2.15983,1.53581,0.476875
1.02115,2.18361,1.53572,0.475939
1.02199,2.20735,1.53564,0.474999
1.02282,2.23103,1.53556,0.474057
1.02366,2.25467,1.5355,0.473113
1.02449,2.27827,1.53543,0.472168
1.02533,2.30181,1.53538,0.471224
1.02616,2.32531,1.53533,0.47028
1.02699,2.34877,1.53528,0.469337
1.02783,2.37217,1.53524,0.468395
1.02866,2.39553,1.5352,0.467454
1.02949,2.41884,1.53517,0.466515
1.03032,2.4421,1.53513,0.465577
1.03115,2.46532,1.5351,0.464641
1.03197,2.48849,1.53508,0.463707
1.0328,2.51162,1.53505,0.462774
1.03363,2.53469,1.53503,0.461843
1.03445,2.55772,1.53501,0.460914
1.03528,2.58071,1.53499,0.459987
1.0361,2.60365,1.53498,0.459062
1.03692,2.62654,1.53496,0.458138
1.03774,2.64939,1.53495,0.457216
1.03856,2.67219,1.53494,0.456296
1.03937,2.69494,1.53492,0.455378
1.04019,2.71765,1.53491,0.454462
1.041,2.74031,1.5349,0.453547
1.04181,2.76293,1.5349,0.452635
1.04262,2.7855,1.53489,0.451724
1.04343,2.80803,1.53488,0.450815
1.04424,2.83051,1.53487,0.449908
1.04505,2.85294,1.53487,0.449003
1.04585,2.87533,1.53486,0.448099
1.04666,2.89768,1.53486,0.447198
1.04746,2.91998,1.53485,0.446298
1.04826,2.94223,1.53485,0.4454
1.04906,2.96445,1.53485,0.444504
1.04985,2.98661,1.53484,0.443609
1.05065,3.00873,1.53484,0.442717
1.05144,3.03081,1.53484,0.441826
1.05224,3.05284,1.53483,0.440937
1.05303,3.07483,1.53483,0.440049
1.05382,3.09677,1.53483,0.439164
1.05461,3.11867,1.53483,0.43828
1.05539,3.14053,1.53482,0.437398
1.05618,3.16234,1.53482,0.436518
1.05696,3.18411,1.53482,0.43564
1.05774,3.20583,1.53482,0.434763
1.05852,3.22751,1.53482,0.433889
1.0593,3.24915,1.53482,0.433016
1.06008,3.27074,1.53482,0.432144
1.06085,3.29229,1.53482,0.431275
1.06163,3.3138,1.53482,0.430407
1.0624,3.33526,1.53481,0.429541
1.06317,3.35668,1.53481,0.428677
1.06394,3.37806,1.53481,0.427814
1.06471,3.39939,1.53481,0.426953
1.06548,3.42069,1.53481,0.426094
1.06624,3.44193,1.53481,0.425237
1.067,3.46314,1.53481,0.424381
1.06777,3.4843,1.53481,0.423527
1.06853,3.50542,1.53481,0.422675
1.06929,3.5265,1.53481,0.421824
1.07004,3.54753,1.53481,0.420976
1.0708,3.56853,1.53481,0.420128
1.07155,3.58948,1.53481,0.419283
1.07231,3.61039,1.53481,0.418439
1.07306,3.63125,1.53481,0.417597
1.07381,3.65208,1.53481,0.416757
1.07456,3.67286,1.53481,0.415919
1.0753,3.6936,1.53481,0.415082
1.07605,3.7143,1.53481,0.414247
1.07679,3.73496,1.53481,0.413413
1.07753,3.75557,1.53481,0.412581
1.07827,3.77615,1.53481,0.411751
1.07901,3.79668,1.53481,0.410922
1.07975,3.81717,1.53481,0.410096
1.08049,3.83762,1.53481,0.40927
1.08122,3.85803,1.53481,0.408447
1.08196,3.8784,1.53481,0.407625
1.08269,3.89872,1.53481,0.406805
1.08342,3.91901,1.53481,0.405986
1.08415,3.93926,1.53481,0.405169
1.08487,3.95946,1.53481,0.404354
1.0856,3.97962,1.53481,0.40354
1.08632,3.99975,1.53481,0.402728
1.08705,4.01983,1.53481,0.401918
1.08777,4.03987,1.53481,0.401109
1.08849,4.05988,1.53481,0.400302
1.08921,4.07984,1.53481,0.399497
1.08993,4.09976,1.53481,0.398693
1.09064,4.11964,1.53481,0.397891
1.09136,4.13948,1.53481,0.39709
1.09207,4.15928,1.53481,0.396291
1.09278,4.17905,1.53481,0.395494
1.09349,4.19877,1.53481,0.394698
1.0942,4.21845,1.53481,0.393904
1.09491,4.23809,1.53481,0.393111
1.09561,4.2577,1.53481,0.39232
1.09632,4.27726,1.53481,0.391531
1.09702,4.29679,1.53481,0.390743
1.09772,4.31627,1.53481,0.389957
1.09842,4.33572,1.53481,0.389172
1.09912,4.35512,1.53481,0.388389
1.09982,4.37449,1.53481,0.387607
1.10051,4.39382,1.53481,0.386827
1.10121,4.41311,1.53481,0.386049
1.1019,4.43236,1.53481,0.385272
1.10259,4.45157,1.53481,0.384497
1.10328,4.47075,1.5348,0.383723
1.10397,4.48988,1.5348,0.382951
1.10466,4.50898,1.5348,0.382181
1.10535,4.52804,1.5348,0.381412
1.10603,4.54706,1.5348,0.380644
1.10671,4.56604,1.5348,0.379878
1.1074,4.58498,1.5348,0.379114
1.10808,4.60389,1.5348,0.378351
1.10876,4.62275,1.5348,0.37759
1.10944,4.64158,1.5348,0.37683
1.11011,4.66038,1.5348,0.376072
1.11079,4.67913,1.5348,0.375315
1.11146,4.69784,1.5348,0.37456
1.11213,4.71652,1.5348,0.373806
1.1128,4.73516,1.5348,0.373054
1.11347,4.75377,1.5348,0.372303
1.11414,4.77233,1.5348,0.371554
1.11481,4.79086,1.5348,0.370807
1.11548,4.80935,1.5348,0.37006
1.11614,4.82781,1.5348,0.369316
1.1168,4.84622,1.5348,0.368573
1.11747,4.8646,1.5348,0.367831
1.11813,4.88294,1.5348,0.367091
1.11879,4.90125,1.5348,0.366352
1.11944,4.91952,1.5348,0.365615
1.1201,4.93775,1.5348,0.364879
1.12075,4.95595,1.5348,0.364145
1.12141,4.97411,1.5348,0.363412
1.12206,4.99223,1.5348,0.362681
1.12271,5.01031,1.5348,0.361951
1.12336,5.02836,1.5348,0.361223
1.12401,5.04638,1.5348,0.360496
1.12466,5.06435,1.5348,0.359771
1.1253,5.08229,1.5348,0.359047
1.12595,5.1002,1.5348,0.358324
1.12659,5.11807,1.5348,0.357603
1.12723,5.1359,1.5348,0.356884
1.12788,5.1537,1.5348,0.356166
1.12851,5.17146,1.5348,0.355449
1.12915,5.18918,1.5348,0.354734
1.12979,5.20687,1.5348,0.35402
1.13043,5.22453,1.5348,0.353308
1.13106,5.24214,1.5348,0.352597
1.13169,5.25973,1.5348,0.351887
1.13233,5.27728,1.5348,0.351179
1.13296,5.29479,1.5348,0.350473
1.13359,5.31226,1.5348,0.349767
1.13421,5.32971,1.5348,0.349064
1.13484,5.34711,1.5348,0.348361
1.13547,5.36449,1.5348,0.34766
1.13609,5.38182,1.5348,0.346961
1.13671,5.39912,1.5348,0.346263
1.13733,5.41639,1.5348,0.345566
1.13796,5.43362,1.5348,0.344871
1.13857,5.45082,1.5348,0.344177
1.13919,5.46798,1.5348,0.343484
1.13981,5.48511,1.5348,0.342793
1.14043,5.50221,1.5348,0.342103
1.14104,5.51927,1.5348,0.341415
1.14165,5.53629,1.5348,0.340728
1.14226,5.55328,1.5348,0.340042
1.14288,5.57024,1.5348,0.339358
1.14348,5.58716,1.5348,0.338675
1.14409,5.60405,1.5348,0.337994
1.1447,5.62091,1.5348,0.337314
1.14531,5.63773,1.5348,0.336635
1.14591,5.65451,1.5348,0.335957
1.14651,5.67127,1.5348,0.335281
1.14712,5.68799,1.5348,0.334607
1.14772,5.70467,1.5348,0.333934
1.14832,5.72132,1.5348,0.333262
1.14891,5.73794,1.5348,0.332591
1.14951,5.75453,1.5348,0.331922
1.15011,5.77108,1.5348,0.331254
1.1507,5.7876,1.5348,0.330587
1.1513,5.80408,1.5348,0.329922
1.15189,5.82054,1.5348,0.329258
1.15248,5.83696,1.5348,0.328596
1.15307,5.85334,1.5348,0.327935
1.15366,5.8697,1.5348,0.327275
1.15425,5.88602,1.5348,0.326616
1.15483,5.9023,1.5348,0.325959
1.15542,5.91856,1.5348,0.325303
1.156,5.93478,1.5348,0.324649
1.15659,5.95097,1.5348,0.323995
1.15717,5.96713,1.5348,0.323343
1.15775,5.98325,1.5348,0.322693
1.15833,5.99934,1.5348,0.322043
1.15891,6.0154,1.5348,0.321395
1.15948,6.03143,1.5348,0.320749
1.16006,6.04742,1.5348,0.320103
1.16063,6.06339,1.5348,0.319459
1.16121,6.07932,1.5348,0.318816
1.16178,6.09521,1.5348,0.318175
1.16235,6.11108,1.5348,0.317535
1.16292,6.12692,1.5348,0.316896
1.16349,6.14272,1.5348,0.316258
1.16406,6.15849,1.5348,0.315622
1.16463,6.17423,1.5348,0.314987
1.16519,6.18994,1.5348,0.314353
1.16576,6.20561,1.5348,0.31372
1.16632,6.22126,1.5348,0.313089
1.16688,6.23687,1.5348,0.312459
1.16744,6.25245,1.5348,0.31183
1.168,6.268,1.5348,0.311203
1.16856,6.28352,1.5348,0.310577
1.16912,6.29901,1.5348,0.309952
1.16968,6.31446,1.5348,0.309328
1.17023,6.32989,1.5348,0.308706
1.17079,6.34528,1.5348,0.308085
1.17134,6.36065,1.5348,0.307465
1.17189,6.37598,1.5348,0.306846
1.17244,6.39128,1.5348,0.306228
1.17299,6.40655,1.5348,0.305612
1.17354,6.42179,1.5348,0.304997
1.17409,6.437,1.5348,0.304384
1.17463,6.45218,1.5348,0.303771
1.17518,6.46733,1.5348,0.30316
1.17572,6.48244,1.5348,0.30255
1.17627,6.49753,1.5348,0.301941
1.17681,6.51259,1.5348,0.301334
1.17735,6.52761,1.5348,0.300727
1.17789,6.54261,1.5348,0.300122
1.17843,6.55758,1.5348,0.299518
1.17897,6.57251,1.5348,0.298916
1.1795,6.58742,1.5348,0.298314
1.18004,6.6023,1.5348,0.297714
1.18058,6.61714,1.5348,0.297115
1.18111,6.63196,1.5348,0.296517
1.18164,6.64674,1.5348,0.29592
1.18217,6.6615,1.5348,0.295325
1.1827,6.67623,1.5348,0.294731
1.18323,6.69093,1.5348,0.294138
1.18376,6.70559,1.5348,0.293546
1.18429,6.72023,1.5348,0.292955
1.18481,6.73484,1.5348,0.292366
1.18534,6.74942,1.5348,0.291777
1.18586,6.76397,1.5348,0.29119
1.18639,6.77849,1.5348,0.290604
1.18691,6.79298,1.5348,0.29002
1.18743,6.80744,1.5348,0.289436
1.18795,6.82188,1.5348,0.288854
1.18847,6.83628,1.5348,0.288272
1.18898,6.85066,1.5348,0.287692
1.1895,6.865,1.5348,0.287113
1.19002,6.87932,1.5348,0.286536
1.19053,6.89361,1.5348,0.285959
1.19104,6.90787,1.5348,0.285384
1.19156,6.9221,1.5348,0.284809
1.19207,6.9363,1.5348,0.284236
1.19258,6.95048,1.5348,0.283664
1.19309,6.96462,1.5348,0.283094
1.1936,6.97874,1.5348,0.282524
1.1941,6.99283,1.5348,0.281956
1.19461,7.00689,1.5348,0.281388
1.19512,7.02092,1.5348,0.280822
1.19562,7.03493,1.5348,0.280257
1.19612,7.0489,1.5348,0.279693
1.19663,7.06285,1.5348,0.27913
1.19713,7.07677,1.5348,0.278569
1.19763,7.09066,1.5348,0.278008
1.19813,7.10452,1.5348,0.277449
1.19862,7.11836,1.5348,0.27689
1.19912,7.13217,1.5348,0.276333
1.19962,7.14595,1.5348,0.275777
1.20011,7.1597,1.5348,0.275222
1.20061,7.17342,1.5348,0.274668
1.2011,7.18712,1.5348,0.274116
1.20159,7.20079,1.5348,0.273564
1.20208,7.21443,1.5348,0.273014
1.20258,7.22804,1.5348,0.272464
1.20306,7.24163,1.5348,0.271916
1.20355,7.25519,1.5348,0.271369
1.20404,7.26872,1.5348,0.270823
1.20453,7.28223,1.5348,0.270278
1.20501,7.29571,1.5348,0.269734
1.2055,7.30916,1.5348,0.269191
1.20598,7.32258,1.5348,0.26865
1.20646,7.33598,1.5348,0.268109
1.20694,7.34935,1.5348,0.26757
1.20742,7.36269,1.5348,0.267031
1.2079,7.37601,1.5348,0.266494
1.20838,7.3893,1.5348,0.265958
1.20886,7.40256,1.5348,0.265423
1.20934,7.41579,1.5348,0.264889
1.20981,7.429,1.5348,0.264356
1.21029,7.44219,1.5348,0.263824
1.21076,7.45534,1.5348,0.263293
1.21123,7.46847,1.5348,0.262763
1.21171,7.48158,1.5348,0.262234
1.21218,7.49465,1.5348,0.261707
1.21265,7.5077,1.5348,0.26118
1.21312,7.52073,1.5348,0.260654
1.21358,7.53373,1.5348,0.26013
1.21405,7.5467,1.5348,0.259607
1.21452,7.55964,1.5348,0.259084
1.21498,7.57256,1.5348,0.258563
1.21545,7.58546,1.5348,0.258043
1.21591,7.59832,1.5348,0.257523
1.21637,7.61117,1.5348,0.257005
1.21683,7.62398,1.5348,0.256488
1.21729,7.63677,1.5348,0.255972
1.21775,7.64954,1.5348,0.255457
1.21821,7.66228,1.5348,0.254943
1.21867,7.67499,1.5348,0.25443
1.21913,7.68768,1.5348,0.253918
1.21958,7.70034,1.5348,0.253407
1.22004,7.71298,1.5348,0.252897
1.22049,7.72559,1.5348,0.252388
1.22095,7.73817,1.5348,0.25188
1.2214,7.75073,1.5348,0.251374
1.22185,7.76327,1.5348,0.250868
1.2223,7.77578,1.5348,0.250363
1.22275,7.78826,1.5348,0.249859
1.2232,7.80072,1.5348,0.249356
1.22365,7.81316,1.5348,0.248855
1.22409,7.82557,1.5348,0.248354
1.22454,7.83795,1.5348,0.247854
1.22498,7.85031,1.5348,0.247355
1.22543,7.86265,1.5348,0.246858
1.22587,7.87496,1.5348,0.246361
1.22631,7.88724,1.5348,0.245865
1.22676,7.8995,1.5348,0.245371
1.2272,7.91174,1.5348,0.244877
1.22764,7.92395,1.5348,0.244384
1.22808,7.93614,1.5348,0.243892
1.22851,7.9483,1.5348,0.243402
1.22895,7.96044,1.5348,0.242912
1.22939,7.97255,1.5348,0.242423
1.22982,7.98464,1.5348,0.241935
1.23026,7.9967,1.5348,0.241434
1.23069,8.00871,1.53481,0.240333
1.23112,8.02064,1.53484,0.238787
1.23154,8.03248,1.53486,0.236912
1.23197,8.04421,1.53489,0.234795
1.23238,8.05583,1.53492,0.232503
1.23279,8.06733,1.53494,0.230086
1.2332,8.0787,1.53496,0.227583
1.23361,8.08994,1.53497,0.225023
1.234,8.10106,1.53497,0.222428
1.2344,8.11204,1.53497,0.219814
1.23479,8.12289,1.53497,0.217194
1.23517,8.13362,1.53497,0.214577
1.23555,8.14421,1.53496,0.21197
1.23593,8.15467,1.53495,0.20938
1.2363,8.165,1.53494,0.206808
1.23666,8.17521,1.53493,0.204259
1.23702,8.18529,1.53492,0.201735
1.23738,8.19525,1.53491,0.199236
1.23774,8.20508,1.53489,0.196764
1.23808,8.21479,1.53488,0.19432
1.23843,8.22438,1.53487,0.191904
1.23877,8.23385,1.53486,0.189516
1.23911,8.2432,1.53485,0.187157
1.23944,8.25243,1.53484,0.184826
1.23977,8.26155,1.53484,0.182523
1.24009,8.27056,1.53483,0.180249
1.24041,8.27946,1.53482,0.178002
1.24073,8.28824,1.53481,0.175783
1.24104,8.29691,1.53481,0.173592
1.24135,8.30548,1.5348,0.171427
1.24165,8.31394,1.53479,0.169289
1.24195,8.32229,1.53479,0.167178
1.24225,8.33054,1.53478,0.165094
1.24254,8.33869,1.53478,0.163035
1.24283,8.34673,1.53478,0.161001
1.24312,8.35468,1.53477,0.158993
1.2434,8.36252,1.53477,0.15701
1.24368,8.37027,1.53477,0.155052
1.24396,8.37792,1.53476,0.153118
1.24423,8.38548,1.53476,0.151209
1.2445,8.39294,1.53476,0.149323
1.24476,8.40031,1.53476,0.14746
1.24503,8.40758,1.53476,0.145621
1.24529,8.41477,1.53475,0.143805
1.24554,8.42186,1.53475,0.142011
1.24579,8.42887,1.53475,0.14024
1.24604,8.43579,1.53475,0.138491
1.24629,8.44262,1.53475,0.136764
1.24653,8.44937,1.53475,0.135058
1.24677,8.45604,1.53475,0.133373
1.24701,8.46262,1.53475,0.13171
1.24725,8.46912,1.53475,0.130067
1.24748,8.47554,1.53475,0.128445
1.24771,8.48187,1.53475,0.126843
1.24793,8.48813,1.53475,0.125261
1.24815,8.49431,1.53474,0.123699
1.24837,8.50042,1.53474,0.122156
1.24859,8.50644,1.53474,0.120632
1.24881,8.5124,1.53474,0.119128
1.24902,8.51828,1.53474,0.117642
1.24923,8.52408,1.53474,0.116174
1.24943,8.52981,1.53474,0.114725
1.24964,8.53547,1.53474,0.113295
1.24984,8.54106,1.53474,0.111881
1.25004,8.54659,1.53474,0.110486
1.25024,8.55204,1.53474,0.109108
1.25043,8.55742,1.53474,0.107747
1.25062,8.56274,1.53474,0.106403
1.25081,8.56799,1.53474,0.105076
1.251,8.57317,1.53474,0.103766
1.25118,8.57829,1.53474,0.102471
1.25137,8.58335,1.53474,0.101193
1.25155,8.58834,1.53474,0.0999311
1.25172,8.59327,1.53474,0.0986847
1.2519,8.59814,1.53474,0.0974539
1.25207,8.60295,1.53474,0.0962384
1.25224,8.6077,1.53474,0.095038
1.25241,8.61239,1.53474,0.0938527
1.25258,8.61702,1.53474,0.0926821
1.25275,8.6216,1.53474,0.0915261
1.25291,8.62611,1.53474,0.0903845
1.25307,8.63057,1.53474,0.0892572
1.25323,8.63498,1.53475,0.088144
1.25338,8.63933,1.53475,0.0870446
1.25354,8.64362,1.53475,0.0859589
1.25369,8.64786,1.53475,0.0848868
1.25384,8.65205,1.53475,0.083828
1.25399,8.65619,1.53475,0.0827825
1.25414,8.66027,1.53475,0.08175
1.25429,8.66431,1.53475,0.0807303
1.25443,8.66829,1.53475,0.0797234
1.25457,8.67222,1.53475,0.0787291
1.25471,8.67611,1.53475,0.0777471
1.25485,8.67994,1.53475,0.0767774
1.25499,8.68373,1.53475,0.0758198
1.25512,8.68747,1.53475,0.0748741
1.25525,8.69117,1.53475,0.0739402
1.25539,8.69482,1.53475,0.073018
1.25552,8.69842,1.53475,0.0721073
1.25564,8.70198,1.53475,0.0712079
1.25577,8.70549,1.53475,0.0703198
1.2559,8.70896,1.53475,0.0694427
1.25602,8.71239,1.53475,0.0685766
1.25614,8.71577,1.53475,0.0677212
1.25626,8.71911,1.53475,0.0668766
1.25638,8.72241,1.53475,0.0660425
1.2565,8.72567,1.53475,0.0652187
1.25661,8.72889,1.53475,0.0644053
1.25673,8.73207,1.53475,0.063602
1.25684,8.73521,1.53475,0.0628087
1.25695,8.73831,1.53475,0.0620253
1.25706,8.74137,1.53475,0.0612517
1.25717,8.74439,1.53475,0.0604877
1.25728,8.74737,1.53475,0.0597333
1.25739,8.75032,1.53475,0.0589883
1.25749,8.75323,1.53475,0.0582525
1.2576,8.75611,1.53475,0.057526
1.2577,8.75895,1.53475,0.0568085
1.2578,8.76175,1.53475,0.0560999
1.2579,8.76452,1.53475,0.0554002
1.258,8.76725,1.53475,0.0547092
1.2581,8.76995,1.53475,0.0540269
1.25819,8.77262,1.53475,0.053353
1.25829,8.77525,1.53475,0.0526876
1.25838,8.77785,1.53475,0.0520304
1.25847,8.78042,1.53475,0.0513815
1.25856,8.78295,1.53475,0.0507406
1.25865,8.78546,1.53475,0.0501077
1.25874,8.78793,1.53475,0.0494828
1.25883,8.79037,1.53475,0.0488656
1.25892,8.79278,1.53475,0.0482561
1.259,8.79516,1.53475,0.0476542
1.25909,8.79751,1.53475,0.0470599
1.25917,8.79984,1.53475,0.0464729
1.25926,8.80213,1.53475,0.0458933
1.25934,8.80439,1.53475,0.0453209
1.25942,8.80663,1.53475,0.0447556
1.2595,8.80884,1.53475,0.0441974
1.25958,8.81102,1.53475,0.0436461
1.25965,8.81317,1.53475,0.0431017
1.25973,8.8153,1.53475,0.0425641
1.25981,8.8174,1.53475,0.0420333
1.25988,8.81947,1.53475,0.041509
1.25996,8.82152,1.53475,0.0409913
1.26003,8.82354,1.53475,0.04048
1.2601,8.82554,1.53475,0.0399751
1.26017,8.82751,1.53475,0.0394765
1.26024,8.82946,1.53475,0.0389841
1.26031,8.83139,1.53475,0.0384979
1.26038,8.83329,1.53475,0.0380177
1.26045,8.83516,1.53475,0.0375436
1.26051,8.83701,1.53475,0.0370753
1.26058,8.83884,1.53475,0.0366129
1.26065,8.84065,1.53475,0.0361562
1.26071,8.84243,1.53475,0.0357053
1.26077,8.8442,1.53475,0.0352599
1.26084,8.84594,1.53475,0.0348201
1.2609,8.84765,1.53475,0.0343858
1.26096,8.84935,1.53475,0.033957
1.26102,8.85103,1.53475,0.0335334
1.26108,8.85268,1.53475,0.0331152
1.26114,8.85432,1.53475,0.0327021
1.2612,8.85593,1.53475,0.0322943
1.26125,8.85752,1.53475,0.0318915
1.26131,8.8591,1.53475,0.0314937
1.26137,8.86065,1.53475,0.0311009
1.26142,8.86219,1.53475,0.030713
1.26148,8.8637,1.53475,0.0303299
1.26153,8.8652,1.53475,0.0299516
1.26158,8.86668,1.53475,0.029578
1.26164,8.86813,1.53475,0.0292091
1.26169,8.86958,1.53475,0.0288448
1.26174,8.871,1.53475,0.0284851
1.26179,8.87241,1.53475,0.0281298
1.26184,8.87379,1.53475,0.0277789
1.26189,8.87516,1.53475,0.0274324
1.26194,8.87652,1.53475,0.0270903
1.26199,8.87785,1.53475,0.0267524
1.26203,8.87917,1.53475,0.0264187
1.26208,8.88048,1.53475,0.0260892
1.26213,8.88177,1.53475,0.0257638
1.26217,8.88304,1.53475,0.0254425
1.26222,8.88429,1.53475,0.0251251
1.26226,8.88553,1.53475,0.0248118
1.26952,8.88204,-0.448241,0.161089
1.28009,8.88986,0.636763,0.262846
1.29684,8.88732,-0.149967,0.338837
1.31637,8.89074,0.172973,0.396464
1.33802,8.88708,-0.167054,0.43917
1.36146,8.88455,-0.107602,0.471571
1.3852,8.87742,-0.29187,0.495665
1.40968,8.86966,-0.306893,0.513658
1.43373,8.8589,-0.420759,0.526954
1.45776,8.84695,-0.461332,0.536759
1.48112,8.83302,-0.537762,0.543889
1.50406,8.81795,-0.581518,0.549012
1.52625,8.80148,-0.638493,0.55262
1.54784,8.78405,-0.679127,0.555083
1.5687,8.76562,-0.723614,0.55668
1.58893,8.74642,-0.759232,0.557623
1.60847,8.72651,-0.794944,0.558071
1.6274,8.706,-0.825341,0.558144
1.64571,8.68496,-0.85446,0.557933
1.66347,8.66348,-0.88006,0.557506
1.6807,8.64159,-0.904008,0.556917
1.69742,8.61938,-0.925423,0.556205
1.71368,8.59687,-0.945209,0.555399
1.72952,8.5741,-0.963062,0.554521
1.74495,8.55112,-0.979448,0.553591
1.76001,8.52796,-0.994304,0.55262
1.77473,8.50463,-1.00789,0.551618
1.78913,8.48117,-1.02024,0.550593
1.80324,8.45759,-1.03152,0.549552
1.81708,8.43392,-1.04178,0.548497
1.83067,8.41016,-1.05115,0.547434
1.84403,8.38633,-1.05967,0.546364
1.85719,8.36245,-1.06745,0.545289
1.87014,8.33852,-1.07453,0.544211
1.88292,8.31456,-1.08098,0.543131
1.89553,8.29057,-1.08686,0.54205
1.90798,8.26656,-1.09222,0.540969
1.9203,8.24254,-1.09711,0.539888
1.93248,8.21851,-1.10156,0.538807
1.94454,8.19448,-1.10562,0.537728
1.95649,8.17045,-1.10932,0.53665
1.96833,8.14644,-1.11269,0.535573
1.98008,8.12243,-1.11576,0.534498
1.99173,8.09844,-1.11856,0.533424
2.0033,8.07447,-1.12111,0.532352
2.01479,8.05052,-1.12343,0.531282
2.02621,8.02659,-1.12555,0.530214
2.03756,8.00269,-1.12748,0.529148
2.04884,7.97882,-1.12924,0.528084
2.06007,7.95498,-1.13084,0.527022
2.07123,7.93117,-1.1323,0.525962
2.08234,7.90739,-1.13364,0.524904
2.0934,7.88365,-1.13485,0.523848
2.10442,7.85994,-1.13596,0.522794
2.11538,7.83627,-1.13696,0.521743
2.1263,7.81264,-1.13788,0.520693
2.13718,7.78904,-1.13872,0.519645
2.14803,7.76549,-1.13948,0.5186
2.15883,7.74197,-1.14018,0.517556
2.16959,7.7185,-1.14081,0.516515
2.18032,7.69507,-1.14139,0.515476
